# Time[yr]      RSL[m]
-64820000.00000001	59.1
-64800000.0	59.3
-64780000.0	59.5
-64760000.00000001	59.7
-64739999.99999999	60.0
-64720000.0	60.3
-64700000.0	60.6
-64680000.00000001	60.9
-64660000.0	61.2
-64640000.0	61.5
-64620000.00000001	61.7
-64599999.99999999	61.9
-64580000.0	62.1
-64560000.0	62.2
-64540000.00000001	62.2
-64519999.99999999	62.2
-64500000.0	62.1
-64480000.00000001	61.8
-64460000.00000001	61.5
-64440000.0	61.0
-64420000.0	60.5
-64400000.00000001	59.8
-64379999.99999999	59.1
-64360000.0	58.4
-64340000.0	57.7
-64320000.00000001	57.1
-64300000.0	56.5
-64280000.0	56.0
-64260000.00000001	55.6
-64239999.99999999	55.3
-64220000.0	55.2
-64200000.0	55.2
-64180000.00000001	55.4
-64160000.0	55.7
-64140000.0	56.2
-64120000.00000001	56.7
-64099999.99999999	57.4
-64080000.0	58.1
-64060000.0	58.9
-64040000.00000001	59.7
-64019999.99999999	60.5
-64000000.0	61.3
-63980000.00000001	62.1
-63960000.0	62.9
-63940000.00000001	63.7
-63920000.0	64.4
-63900000.0	65.0
-63880000.0	65.5
-63860000.0	65.9
-63840000.0	66.2
-63820000.0	66.3
-63800000.00000001	66.3
-63780000.0	66.2
-63760000.0	66.1
-63740000.0	65.8
-63720000.0	65.6
-63700000.0	65.3
-63680000.0	65.1
-63660000.0	64.9
-63640000.0	64.8
-63620000.00000001	64.8
-63600000.0	64.9
-63580000.0	65.1
-63560000.0	65.4
-63540000.0	65.8
-63520000.0	66.3
-63500000.0	66.8
-63480000.00000001	67.3
-63460000.0	67.8
-63440000.00000001	68.2
-63420000.0	68.6
-63400000.0	68.8
-63380000.0	69.0
-63360000.0	68.9
-63340000.0	68.8
-63320000.0	68.4
-63300000.00000001	67.9
-63280000.0	67.2
-63260000.0	66.4
-63240000.0	65.5
-63220000.0	64.5
-63200000.0	63.5
-63180000.0	62.5
-63160000.0	61.6
-63140000.0	60.7
-63120000.00000001	59.9
-63100000.0	59.2
-63080000.0	58.7
-63060000.0	58.2
-63040000.0	57.9
-63020000.0	57.7
-63000000.0	57.6
-62980000.00000001	57.5
-62960000.0	57.5
-62940000.00000001	57.4
-62920000.0	57.4
-62900000.0	57.2
-62880000.0	56.9
-62860000.0	56.5
-62840000.0	55.9
-62820000.0	55.3
-62800000.00000001	54.5
-62780000.0	53.7
-62760000.0	52.9
-62740000.0	52.1
-62720000.0	51.4
-62700000.0	50.7
-62680000.0	50.1
-62660000.0	49.6
-62640000.0	49.1
-62620000.00000001	48.6
-62600000.0	48.2
-62580000.0	47.7
-62560000.0	47.2
-62540000.0	46.7
-62520000.0	46.1
-62500000.0	45.5
-62480000.00000001	44.8
-62460000.0	44.0
-62440000.00000001	43.2
-62420000.0	42.4
-62400000.0	41.6
-62380000.0	40.7
-62360000.0	39.9
-62340000.0	39.2
-62320000.0	38.6
-62300000.00000001	38.0
-62280000.0	37.6
-62260000.0	37.4
-62240000.0	37.4
-62220000.0	37.6
-62200000.0	38.0
-62180000.0	38.6
-62160000.0	39.3
-62140000.0	40.1
-62120000.00000001	40.9
-62100000.0	41.6
-62080000.0	42.3
-62060000.0	42.8
-62040000.0	43.1
-62020000.0	43.3
-62000000.0	43.3
-61980000.00000001	43.2
-61960000.0	43.0
-61940000.00000001	42.8
-61920000.0	42.7
-61900000.0	42.6
-61880000.0	42.6
-61860000.0	42.8
-61840000.0	43.1
-61820000.0	43.5
-61800000.00000001	44.0
-61780000.0	44.5
-61760000.0	45.0
-61740000.0	45.5
-61720000.0	46.0
-61700000.0	46.2
-61680000.0	46.4
-61660000.0	46.4
-61640000.0	46.3
-61620000.00000001	46.1
-61600000.0	45.9
-61580000.0	45.6
-61560000.0	45.4
-61540000.0	45.3
-61520000.0	45.3
-61500000.0	45.3
-61480000.00000001	45.5
-61460000.0	45.7
-61440000.0	45.9
-61420000.0	46.1
-61400000.0	46.3
-61380000.0	46.5
-61360000.0	46.6
-61340000.0	46.6
-61320000.0	46.5
-61300000.00000001	46.4
-61280000.0	46.3
-61260000.0	46.1
-61240000.0	45.9
-61220000.0	45.6
-61200000.0	45.2
-61180000.0	44.7
-61160000.0	44.1
-61140000.0	43.4
-61120000.00000001	42.5
-61100000.0	41.6
-61080000.0	40.5
-61060000.0	39.5
-61040000.0	38.4
-61020000.0	37.3
-61000000.0	36.4
-60980000.00000001	35.5
-60960000.0	34.7
-60940000.0	34.0
-60920000.0	33.4
-60900000.0	33.0
-60880000.0	32.6
-60860000.0	32.4
-60840000.0	32.3
-60820000.0	32.3
-60800000.00000001	32.5
-60780000.0	32.7
-60760000.0	33.1
-60740000.0	33.5
-60720000.0	34.1
-60700000.0	34.6
-60680000.0	35.1
-60660000.0	35.6
-60640000.0	36.0
-60620000.00000001	36.4
-60600000.0	36.6
-60580000.0	36.8
-60560000.0	36.8
-60540000.0	36.8
-60520000.0	36.7
-60500000.0	36.6
-60480000.00000001	36.4
-60460000.0	36.2
-60440000.0	35.9
-60420000.0	35.6
-60400000.0	35.3
-60380000.0	34.9
-60360000.0	34.4
-60340000.0	33.8
-60320000.0	33.2
-60300000.00000001	32.6
-60280000.0	31.9
-60260000.0	31.2
-60240000.0	30.5
-60220000.0	29.9
-60200000.0	29.3
-60180000.0	28.8
-60160000.0	28.4
-60140000.0	28.0
-60120000.00000001	27.7
-60100000.0	27.4
-60080000.0	27.1
-60060000.0	26.8
-60040000.0	26.6
-60020000.0	26.3
-60000000.0	26.0
-59980000.00000001	25.7
-59960000.0	25.4
-59940000.0	25.1
-59920000.0	24.8
-59900000.0	24.4
-59880000.0	24.1
-59860000.0	23.8
-59840000.0	23.4
-59820000.0	23.1
-59800000.00000001	22.8
-59780000.0	22.4
-59760000.0	22.1
-59740000.0	21.8
-59720000.0	21.5
-59700000.0	21.2
-59680000.0	21.0
-59660000.0	20.8
-59640000.0	20.8
-59620000.00000001	20.8
-59600000.0	21.0
-59580000.0	21.2
-59560000.0	21.5
-59540000.0	21.8
-59520000.0	22.3
-59500000.0	22.7
-59480000.00000001	23.2
-59460000.0	23.6
-59440000.0	24.1
-59420000.0	24.5
-59400000.0	25.0
-59380000.0	25.4
-59360000.0	25.9
-59340000.0	26.3
-59320000.0	26.8
-59300000.00000001	27.2
-59280000.0	27.5
-59260000.0	27.7
-59240000.0	27.9
-59220000.0	27.9
-59200000.0	27.7
-59180000.0	27.5
-59160000.0	27.1
-59140000.0	26.8
-59120000.00000001	26.4
-59100000.0	26.2
-59080000.0	26.0
-59060000.0	26.1
-59040000.0	26.2
-59020000.0	26.6
-59000000.0	27.0
-58980000.00000001	27.6
-58960000.0	28.2
-58940000.0	28.9
-58920000.0	29.5
-58900000.0	30.2
-58880000.0	30.8
-58860000.0	31.4
-58840000.0	32.0
-58820000.0	32.5
-58800000.00000001	32.8
-58780000.0	33.1
-58760000.0	33.3
-58740000.0	33.3
-58720000.0	33.2
-58700000.0	33.1
-58680000.0	32.8
-58660000.0	32.6
-58640000.0	32.3
-58620000.00000001	32.2
-58600000.0	32.1
-58580000.0	32.2
-58560000.0	32.4
-58540000.0	32.7
-58520000.0	33.1
-58500000.0	33.5
-58480000.00000001	34.0
-58460000.0	34.3
-58440000.0	34.6
-58420000.0	34.6
-58400000.0	34.5
-58380000.0	34.2
-58360000.0	33.8
-58340000.0	33.3
-58320000.0	32.8
-58300000.00000001	32.5
-58280000.0	32.4
-58260000.0	32.5
-58240000.0	33.0
-58220000.0	33.9
-58200000.0	35.1
-58180000.0	36.7
-58160000.0	38.5
-58140000.0	40.6
-58120000.00000001	42.8
-58100000.0	44.9
-58080000.0	47.0
-58060000.0	48.8
-58040000.0	50.3
-58020000.0	51.4
-58000000.0	52.1
-57980000.00000001	52.4
-57960000.0	52.4
-57940000.0	52.1
-57920000.0	51.6
-57900000.0	51.0
-57880000.0	50.4
-57860000.0	50.0
-57840000.0	49.6
-57820000.0	49.4
-57800000.00000001	49.3
-57780000.0	49.4
-57760000.0	49.5
-57740000.0	49.6
-57720000.0	49.7
-57700000.0	49.6
-57680000.0	49.4
-57660000.0	49.0
-57640000.0	48.5
-57620000.00000001	47.7
-57600000.0	46.7
-57580000.0	45.6
-57560000.0	44.5
-57540000.0	43.2
-57520000.0	41.9
-57500000.0	40.7
-57480000.00000001	39.5
-57460000.0	38.4
-57440000.0	37.4
-57420000.0	36.5
-57400000.0	35.6
-57380000.0	34.7
-57360000.0	33.8
-57340000.0	32.8
-57320000.0	31.8
-57300000.00000001	30.6
-57280000.0	29.4
-57260000.0	28.0
-57240000.0	26.7
-57220000.0	25.3
-57200000.0	23.9
-57180000.0	22.6
-57160000.0	21.4
-57140000.0	20.2
-57120000.00000001	19.3
-57100000.0	18.5
-57080000.0	17.9
-57060000.0	17.5
-57040000.0	17.3
-57020000.0	17.4
-57000000.0	17.9
-56980000.00000001	18.6
-56960000.0	19.5
-56940000.0	20.7
-56920000.0	22.1
-56900000.0	23.5
-56880000.0	24.9
-56860000.0	26.1
-56840000.0	27.1
-56820000.0	27.8
-56800000.00000001	28.1
-56780000.0	28.1
-56760000.0	27.6
-56740000.0	26.8
-56720000.0	25.6
-56700000.0	24.2
-56680000.0	22.6
-56660000.0	21.0
-56640000.0	19.3
-56620000.00000001	17.7
-56600000.0	16.2
-56580000.0	14.8
-56560000.0	13.6
-56540000.0	12.5
-56520000.0	11.6
-56500000.0	10.7
-56480000.00000001	9.8
-56460000.0	9.0
-56440000.0	8.2
-56420000.0	7.4
-56400000.0	6.7
-56380000.0	6.0
-56360000.0	5.4
-56340000.0	4.9
-56320000.0	4.4
-56300000.00000001	4.1
-56280000.0	3.8
-56260000.0	3.6
-56240000.0	3.5
-56220000.0	3.4
-56200000.0	3.4
-56180000.0	3.3
-56160000.0	3.2
-56140000.0	3.1
-56120000.00000001	2.9
-56100000.0	2.8
-56080000.0	2.7
-56060000.0	2.6
-56040000.0	2.6
-56020000.0	2.7
-56000000.0	2.9
-55980000.00000001	3.2
-55960000.0	3.4
-55940000.0	3.6
-55920000.0	3.6
-55900000.0	3.5
-55880000.0	3.1
-55860000.0	2.5
-55840000.0	1.7
-55820000.0	0.7
-55800000.00000001	-0.2
-55780000.0	-1.0
-55760000.0	-1.6
-55740000.0	-1.9
-55720000.0	-1.9
-55700000.0	-1.4
-55680000.0	-0.5
-55660000.0	0.8
-55640000.0	2.3
-55620000.00000001	4.1
-55600000.0	6.0
-55580000.0	8.0
-55560000.0	10.0
-55540000.0	12.0
-55520000.0	13.9
-55500000.0	15.7
-55480000.00000001	17.4
-55460000.0	19.1
-55440000.0	20.6
-55420000.0	22.0
-55400000.0	23.3
-55380000.0	24.4
-55360000.0	25.5
-55340000.0	26.5
-55320000.0	27.4
-55300000.00000001	28.2
-55280000.0	28.9
-55260000.0	29.6
-55240000.0	30.1
-55220000.0	30.6
-55200000.0	30.9
-55180000.0	31.0
-55160000.0	31.0
-55140000.0	30.8
-55120000.00000001	30.4
-55100000.0	29.8
-55080000.0	29.2
-55060000.0	28.4
-55040000.0	27.7
-55020000.0	27.0
-55000000.0	26.3
-54980000.00000001	25.8
-54960000.0	25.4
-54940000.0	25.1
-54920000.0	24.8
-54900000.0	24.7
-54880000.0	24.5
-54860000.0	24.3
-54840000.0	24.1
-54820000.0	23.8
-54800000.00000001	23.5
-54780000.0	23.1
-54760000.0	22.7
-54740000.0	22.2
-54720000.0	21.7
-54700000.0	21.3
-54680000.0	21.0
-54660000.0	20.9
-54640000.0	20.9
-54620000.00000001	21.1
-54600000.0	21.5
-54580000.0	22.1
-54560000.0	22.8
-54540000.0	23.6
-54520000.0	24.5
-54500000.0	25.3
-54480000.00000001	26.1
-54460000.0	26.8
-54440000.0	27.4
-54420000.0	27.9
-54400000.0	28.2
-54380000.0	28.5
-54360000.0	28.8
-54340000.0	28.9
-54320000.0	29.1
-54300000.00000001	29.2
-54280000.0	29.3
-54260000.0	29.4
-54240000.0	29.5
-54220000.0	29.6
-54200000.0	29.7
-54180000.0	29.8
-54160000.0	29.8
-54140000.0	29.9
-54120000.00000001	30.1
-54100000.0	30.3
-54080000.0	30.6
-54060000.0	31.1
-54040000.0	31.7
-54020000.0	32.4
-54000000.0	33.1
-53980000.00000001	34.0
-53960000.0	34.8
-53940000.0	35.6
-53920000.0	36.2
-53900000.0	36.7
-53880000.0	36.9
-53860000.0	37.0
-53840000.0	36.9
-53820000.0	36.6
-53800000.00000001	36.3
-53780000.0	36.0
-53760000.0	35.8
-53740000.0	35.8
-53720000.0	35.9
-53700000.0	36.3
-53680000.0	36.9
-53660000.0	37.8
-53640000.0	38.9
-53620000.00000001	40.1
-53600000.0	41.5
-53580000.0	43.0
-53560000.0	44.5
-53540000.0	46.1
-53520000.0	47.7
-53500000.0	49.3
-53480000.00000001	50.9
-53460000.0	52.6
-53440000.0	54.3
-53420000.0	56.0
-53400000.0	57.7
-53380000.0	59.3
-53360000.0	60.8
-53340000.0	62.1
-53320000.0	63.2
-53300000.00000001	64.2
-53280000.0	64.9
-53260000.0	65.5
-53240000.0	65.9
-53220000.0	66.2
-53200000.0	66.3
-53180000.0	66.2
-53160000.0	66.0
-53140000.0	65.5
-53120000.00000001	64.8
-53100000.0	63.8
-53080000.0	62.5
-53060000.0	60.9
-53040000.0	58.9
-53020000.0	56.5
-53000000.0	53.7
-52980000.00000001	50.6
-52960000.0	47.2
-52940000.0	43.6
-52920000.0	39.9
-52900000.0	36.3
-52880000.0	32.9
-52860000.0	29.8
-52840000.0	27.2
-52820000.0	25.2
-52800000.00000001	23.8
-52780000.0	22.9
-52760000.0	22.5
-52740000.0	22.5
-52720000.0	22.9
-52700000.0	23.6
-52680000.0	24.5
-52660000.0	25.6
-52640000.0	26.8
-52620000.00000001	28.1
-52600000.0	29.6
-52580000.0	31.3
-52560000.0	33.0
-52540000.0	34.8
-52520000.0	36.6
-52500000.0	38.3
-52480000.00000001	39.9
-52460000.0	41.4
-52440000.0	42.6
-52420000.0	43.7
-52400000.0	44.4
-52380000.0	44.9
-52360000.0	45.2
-52340000.0	45.3
-52320000.0	45.2
-52300000.00000001	45.0
-52280000.0	44.8
-52260000.0	44.4
-52240000.0	44.0
-52220000.0	43.7
-52200000.0	43.3
-52180000.0	43.0
-52160000.0	42.7
-52140000.0	42.4
-52120000.00000001	42.3
-52100000.0	42.3
-52080000.0	42.5
-52060000.0	42.9
-52040000.0	43.4
-52020000.0	44.2
-52000000.0	45.2
-51980000.00000001	46.4
-51960000.0	47.7
-51940000.0	49.1
-51920000.0	50.6
-51900000.0	52.1
-51880000.0	53.6
-51860000.0	55.0
-51840000.0	56.4
-51820000.0	57.7
-51800000.00000001	59.0
-51780000.0	60.0
-51760000.0	60.9
-51740000.0	61.6
-51720000.0	62.1
-51700000.0	62.3
-51680000.0	62.4
-51660000.0	62.3
-51640000.0	62.1
-51620000.00000001	61.9
-51600000.0	61.8
-51580000.0	61.8
-51560000.0	62.0
-51540000.0	62.4
-51520000.0	63.0
-51500000.0	63.8
-51480000.00000001	64.7
-51460000.0	65.7
-51440000.0	66.7
-51420000.0	67.5
-51400000.0	68.1
-51380000.0	68.4
-51360000.0	68.4
-51340000.0	68.1
-51320000.0	67.4
-51300000.00000001	66.3
-51280000.0	64.9
-51260000.0	63.2
-51240000.0	61.4
-51220000.0	59.4
-51200000.0	57.4
-51180000.0	55.6
-51160000.0	54.0
-51140000.0	52.8
-51120000.00000001	52.0
-51100000.0	51.6
-51080000.0	51.5
-51060000.0	51.7
-51040000.0	52.0
-51020000.0	52.4
-51000000.0	52.6
-50980000.00000001	52.6
-50960000.0	52.4
-50940000.0	51.9
-50920000.0	51.2
-50900000.0	50.2
-50880000.0	49.0
-50860000.0	47.7
-50840000.0	46.4
-50820000.0	45.1
-50800000.00000001	43.9
-50780000.0	42.7
-50760000.0	41.7
-50740000.0	40.9
-50720000.0	40.3
-50700000.0	39.9
-50680000.0	39.7
-50660000.0	39.6
-50640000.0	39.6
-50620000.00000001	39.8
-50600000.0	40.0
-50580000.0	40.2
-50560000.0	40.4
-50540000.0	40.6
-50520000.0	40.8
-50500000.0	40.9
-50480000.00000001	41.1
-50460000.0	41.2
-50440000.0	41.4
-50420000.0	41.6
-50400000.0	41.8
-50380000.0	42.0
-50360000.0	42.3
-50340000.0	42.7
-50320000.0	43.2
-50300000.00000001	43.7
-50280000.0	44.4
-50260000.0	45.2
-50240000.0	46.1
-50220000.0	47.0
-50200000.0	48.0
-50180000.0	49.1
-50160000.0	50.2
-50140000.0	51.4
-50120000.00000001	52.5
-50100000.0	53.6
-50080000.0	54.7
-50060000.0	55.8
-50040000.0	56.9
-50020000.0	58.0
-50000000.0	59.1
-49980000.00000001	60.3
-49960000.0	61.5
-49940000.0	62.8
-49920000.0	64.1
-49900000.0	65.5
-49880000.0	66.9
-49860000.0	68.4
-49840000.0	69.9
-49820000.0	71.3
-49800000.00000001	72.7
-49780000.0	74.0
-49760000.0	75.1
-49740000.0	76.0
-49720000.0	76.7
-49700000.0	77.1
-49680000.0	77.3
-49660000.0	77.3
-49640000.0	77.2
-49620000.00000001	76.9
-49600000.0	76.5
-49580000.0	76.0
-49560000.0	75.4
-49540000.0	74.7
-49520000.0	73.9
-49500000.0	73.0
-49480000.00000001	72.0
-49460000.0	71.0
-49440000.0	70.0
-49420000.0	69.0
-49400000.0	68.0
-49380000.0	67.0
-49360000.0	66.0
-49340000.0	64.9
-49320000.0	63.8
-49300000.00000001	62.6
-49280000.0	61.3
-49260000.0	59.8
-49240000.0	58.2
-49220000.0	56.5
-49200000.0	54.8
-49180000.0	53.2
-49160000.0	51.8
-49140000.0	50.5
-49120000.00000001	49.6
-49100000.0	48.9
-49080000.0	48.6
-49060000.0	48.5
-49040000.0	48.7
-49020000.0	49.2
-49000000.0	49.9
-48980000.00000001	50.8
-48960000.0	51.9
-48940000.0	53.1
-48920000.0	54.5
-48900000.0	55.9
-48880000.0	57.3
-48860000.0	58.6
-48840000.0	59.9
-48820000.0	61.1
-48800000.00000001	62.1
-48780000.0	63.0
-48760000.0	63.8
-48740000.0	64.5
-48720000.0	65.2
-48700000.0	65.7
-48680000.0	66.2
-48660000.0	66.7
-48640000.0	67.0
-48620000.00000001	67.2
-48600000.0	67.4
-48580000.0	67.4
-48560000.0	67.4
-48540000.0	67.4
-48520000.0	67.5
-48500000.0	67.5
-48480000.00000001	67.7
-48460000.0	67.8
-48440000.0	68.0
-48420000.0	68.2
-48400000.0	68.3
-48380000.0	68.3
-48360000.0	68.0
-48340000.0	67.6
-48320000.0	66.9
-48300000.00000001	66.0
-48280000.0	64.9
-48260000.0	63.8
-48240000.0	62.5
-48220000.0	61.3
-48200000.0	60.2
-48180000.0	59.2
-48160000.0	58.2
-48140000.0	57.4
-48120000.00000001	56.7
-48100000.0	56.0
-48080000.0	55.3
-48060000.0	54.5
-48040000.0	53.6
-48020000.0	52.7
-48000000.0	51.6
-47980000.00000001	50.5
-47960000.0	49.3
-47940000.0	48.1
-47920000.0	47.0
-47900000.0	45.9
-47880000.0	44.8
-47860000.0	43.9
-47840000.0	43.1
-47820000.0	42.4
-47800000.00000001	41.8
-47780000.0	41.3
-47760000.0	41.0
-47740000.0	40.7
-47720000.0	40.6
-47700000.0	40.5
-47680000.0	40.5
-47660000.0	40.4
-47640000.0	40.4
-47620000.0	40.4
-47600000.0	40.3
-47580000.0	40.1
-47560000.0	39.8
-47540000.0	39.5
-47520000.0	39.2
-47500000.0	38.9
-47480000.00000001	38.7
-47460000.0	38.6
-47440000.0	38.7
-47420000.0	39.1
-47400000.0	39.7
-47380000.0	40.5
-47360000.0	41.6
-47340000.0	42.8
-47320000.0	44.0
-47300000.00000001	45.3
-47280000.0	46.5
-47260000.0	47.5
-47240000.0	48.2
-47220000.0	48.6
-47200000.0	48.7
-47180000.0	48.5
-47160000.0	47.9
-47140000.0	47.0
-47120000.0	45.8
-47100000.0	44.4
-47080000.0	42.9
-47060000.0	41.2
-47040000.0	39.5
-47020000.0	37.9
-47000000.0	36.3
-46980000.00000001	35.0
-46960000.0	33.8
-46940000.0	33.0
-46920000.0	32.5
-46900000.0	32.4
-46880000.0	32.6
-46860000.0	33.1
-46840000.0	33.9
-46820000.0	34.9
-46800000.00000001	36.0
-46780000.0	37.0
-46760000.0	38.0
-46740000.0	38.7
-46720000.0	39.2
-46700000.0	39.5
-46680000.0	39.5
-46660000.0	39.4
-46640000.0	39.1
-46620000.0	38.8
-46600000.0	38.4
-46580000.0	38.1
-46560000.0	37.9
-46540000.0	37.8
-46520000.0	37.8
-46500000.0	37.8
-46480000.00000001	37.9
-46460000.0	38.0
-46440000.0	38.0
-46420000.0	38.1
-46400000.0	38.1
-46380000.0	38.0
-46360000.0	37.8
-46340000.0	37.6
-46320000.0	37.4
-46300000.00000001	37.0
-46280000.0	36.6
-46260000.0	36.2
-46240000.0	35.7
-46220000.0	35.3
-46200000.0	34.8
-46180000.0	34.4
-46160000.0	34.1
-46140000.0	33.8
-46120000.0	33.7
-46100000.0	33.6
-46080000.0	33.6
-46060000.0	33.8
-46040000.0	33.9
-46020000.0	34.2
-46000000.0	34.4
-45980000.00000001	34.6
-45960000.0	34.7
-45940000.0	34.8
-45920000.0	34.8
-45900000.0	34.8
-45880000.0	34.7
-45860000.0	34.5
-45840000.0	34.3
-45820000.0	34.2
-45800000.00000001	33.9
-45780000.0	33.7
-45760000.0	33.5
-45740000.0	33.2
-45720000.0	32.9
-45700000.0	32.5
-45680000.0	32.1
-45660000.0	31.7
-45640000.0	31.2
-45620000.0	30.6
-45600000.0	30.0
-45580000.0	29.4
-45560000.0	28.8
-45540000.0	28.3
-45520000.0	27.7
-45500000.0	27.2
-45480000.00000001	26.9
-45460000.0	26.6
-45440000.0	26.6
-45420000.0	26.8
-45400000.0	27.2
-45380000.0	27.8
-45360000.0	28.8
-45340000.0	29.9
-45320000.0	31.2
-45300000.00000001	32.6
-45280000.0	33.9
-45260000.0	35.2
-45240000.0	36.4
-45220000.0	37.3
-45200000.0	37.9
-45180000.0	38.3
-45160000.0	38.4
-45140000.0	38.3
-45120000.0	38.0
-45100000.0	37.6
-45080000.0	37.2
-45060000.0	36.7
-45040000.0	36.3
-45020000.0	35.9
-45000000.0	35.5
-44980000.00000001	35.2
-44960000.0	35.0
-44940000.0	34.8
-44920000.0	34.6
-44900000.0	34.5
-44880000.0	34.4
-44860000.0	34.3
-44840000.0	34.3
-44820000.0	34.4
-44800000.00000001	34.5
-44780000.0	34.7
-44760000.0	34.9
-44740000.0	35.1
-44720000.0	35.4
-44700000.0	35.6
-44680000.0	35.8
-44660000.0	35.9
-44640000.0	35.9
-44620000.0	35.8
-44600000.0	35.5
-44580000.0	35.2
-44560000.0	34.7
-44540000.0	34.1
-44520000.0	33.4
-44500000.0	32.6
-44480000.00000001	31.8
-44460000.0	31.0
-44440000.0	30.3
-44420000.0	29.7
-44400000.0	29.2
-44380000.0	28.9
-44360000.0	28.7
-44340000.0	28.7
-44320000.0	28.8
-44300000.00000001	29.1
-44280000.0	29.5
-44260000.0	29.9
-44240000.0	30.4
-44220000.0	31.0
-44200000.0	31.6
-44180000.0	32.2
-44160000.0	32.8
-44140000.0	33.4
-44120000.0	34.1
-44100000.0	34.7
-44080000.0	35.3
-44060000.0	35.8
-44040000.0	36.2
-44020000.0	36.5
-44000000.0	36.7
-43980000.00000001	36.8
-43960000.0	36.7
-43940000.0	36.5
-43920000.0	36.3
-43900000.0	35.9
-43880000.0	35.5
-43860000.0	35.0
-43840000.0	34.4
-43820000.0	33.9
-43800000.00000001	33.3
-43780000.0	32.7
-43760000.0	32.1
-43740000.0	31.5
-43720000.0	30.9
-43700000.0	30.3
